SpectraSuite Data File
++++++++++++++++++++++++++++++++++++
Date: Thu Nov 07 10:05:43 EST 2024
User: Physics
Dark Spectrum Present: Yes
Reference Spectrum Present: No
Number of Sampled Component Spectra: 1
Spectrometers: USB2G57144
Integration Time (usec): 25000 (USB2G57144)
Spectra Averaged: 10 (USB2G57144)
Boxcar Smoothing: 0 (USB2G57144)
Correct for Electrical Dark: No (USB2G57144)
Strobe/Lamp Enabled: No (USB2G57144)
Correct for Detector Non-linearity: No (USB2G57144)
Correct for Stray Light: No (USB2G57144)
Number of Pixels in Processed Spectrum: 651
>>>>>Begin Processed Spectral Data<<<<<
350.00	5.10
351.00	5.65
352.00	8.24
353.00	8.84
354.00	9.37
355.00	11.18
356.00	12.47
357.00	12.61
358.00	14.86
359.00	18.17
360.00	16.71
361.00	18.90
362.00	19.69
363.00	22.29
364.00	22.95
365.00	22.84
366.00	29.36
367.00	25.25
368.00	22.55
369.00	30.04
370.00	34.38
371.00	41.11
372.00	36.48
373.00	27.72
374.00	31.42
375.00	38.18
376.00	39.75
377.00	39.97
378.00	43.19
379.00	44.49
380.00	44.34
381.00	51.82
382.00	51.71
383.00	48.29
384.00	54.65
385.00	57.09
386.00	59.98
387.00	67.92
388.00	63.97
389.00	67.57
390.00	64.67
391.00	67.30
392.00	88.03
393.00	89.66
394.00	87.99
395.00	71.88
396.00	84.94
397.00	94.53
398.00	89.13
399.00	104.79
400.00	112.45
401.00	104.95
402.00	92.86
403.00	99.50
404.00	136.67
405.00	69.93
406.00	147.94
407.00	188.64
408.00	121.82
409.00	85.29
410.00	180.74
411.00	113.89
412.00	155.03
413.00	149.69
414.00	159.37
415.00	139.53
416.00	165.66
417.00	162.30
418.00	132.57
419.00	189.55
420.00	176.60
421.00	183.89
422.00	178.88
423.00	177.41
424.00	185.11
425.00	183.08
426.00	190.06
427.00	193.85
428.00	205.36
429.00	214.09
430.00	212.00
431.00	224.54
432.00	232.64
433.00	241.73
434.00	253.25
435.00	255.44
436.00	274.92
437.00	270.02
438.00	300.65
439.00	338.56
440.00	252.98
441.00	303.02
442.00	308.18
443.00	363.39
444.00	305.38
445.00	314.53
446.00	319.00
447.00	331.02
448.00	334.72
449.00	348.63
450.00	355.54
451.00	365.69
452.00	356.96
453.00	397.77
454.00	407.14
455.00	371.34
456.00	441.68
457.00	395.12
458.00	415.12
459.00	439.61
460.00	439.40
461.00	442.64
462.00	478.76
463.00	504.05
464.00	433.16
465.00	433.84
466.00	527.14
467.00	516.87
468.00	483.57
469.00	551.21
470.00	591.70
471.00	552.85
472.00	572.35
473.00	607.68
474.00	640.42
475.00	692.77
476.00	715.16
477.00	685.77
478.00	675.21
479.00	729.73
480.00	824.88
481.00	742.83
482.00	819.15
483.00	873.89
484.00	930.84
485.00	968.72
486.00	1053.85
487.00	1105.14
488.00	1018.95
489.00	1153.49
490.00	1186.23
491.00	1226.39
492.00	1272.40
493.00	1292.68
494.00	1360.24
495.00	1388.43
496.00	1342.48
497.00	1479.76
498.00	1413.63
499.00	1276.36
500.00	1389.14
501.00	1502.80
502.00	1575.41
503.00	1494.16
504.00	1539.40
505.00	1620.11
506.00	1542.46
507.00	1534.95
508.00	1678.39
509.00	1549.85
510.00	1686.87
511.00	1802.60
512.00	1946.30
513.00	1424.49
514.00	1601.54
515.00	1827.22
516.00	1829.46
517.00	1774.99
518.00	1846.11
519.00	1859.79
520.00	1869.95
521.00	1878.87
522.00	1910.46
523.00	1933.28
524.00	1993.75
525.00	2057.01
526.00	2133.13
527.00	2069.25
528.00	2055.13
529.00	2092.96
530.00	2396.65
531.00	2477.30
532.00	1855.23
533.00	2210.50
534.00	2286.74
535.00	2264.97
536.00	2249.29
537.00	2216.56
538.00	2290.39
539.00	2442.27
540.00	2455.54
541.00	2535.81
542.00	2620.99
543.00	2642.96
544.00	2313.12
545.00	2064.22
546.00	2381.46
547.00	2792.18
548.00	2666.31
549.00	1615.81
550.00	2376.42
551.00	3141.61
552.00	2898.00
553.00	2959.10
554.00	2833.37
555.00	3105.87
556.00	3091.37
557.00	3087.78
558.00	3021.55
559.00	2989.37
560.00	2864.30
561.00	2826.84
562.00	2739.78
563.00	2638.45
564.00	2571.17
565.00	2572.14
566.00	2746.96
567.00	2805.04
568.00	2853.38
569.00	2833.77
570.00	2871.40
571.00	2688.47
572.00	2759.52
573.00	2785.28
574.00	2842.66
575.00	2863.36
576.00	2937.50
577.00	2873.42
578.00	2782.06
579.00	2926.67
580.00	2863.82
581.00	2741.24
582.00	2760.27
583.00	2755.53
584.00	2778.45
585.00	2405.03
586.00	2328.32
587.00	2605.38
588.00	2484.59
589.00	2442.30
590.00	2551.93
591.00	2535.50
592.00	2589.20
593.00	3245.66
594.00	2794.86
595.00	2746.47
596.00	2545.68
597.00	2671.86
598.00	2805.61
599.00	2774.08
600.00	2791.29
601.00	2869.85
602.00	2840.80
603.00	3056.91
604.00	2806.11
605.00	3202.64
606.00	3150.05
607.00	3083.92
608.00	2989.69
609.00	2908.12
610.00	2936.12
611.00	2885.06
612.00	2816.26
613.00	2804.47
614.00	2796.59
615.00	2759.85
616.00	2734.66
617.00	2748.88
618.00	2805.06
619.00	2847.17
620.00	2771.86
621.00	2787.01
622.00	2752.02
623.00	2760.96
624.00	2737.63
625.00	2748.37
626.00	2755.11
627.00	2754.89
628.00	2781.65
629.00	2783.66
630.00	2820.34
631.00	2860.90
632.00	2897.31
633.00	2898.73
634.00	2933.46
635.00	2924.50
636.00	2899.90
637.00	2913.47
638.00	2927.64
639.00	2932.97
640.00	2935.70
641.00	2927.93
642.00	2919.06
643.00	2904.84
644.00	2832.47
645.00	2884.26
646.00	2901.25
647.00	2895.10
648.00	2882.15
649.00	2864.09
650.00	2866.15
651.00	2843.13
652.00	2835.69
653.00	2833.93
654.00	2837.47
655.00	2798.63
656.00	2797.01
657.00	2772.47
658.00	2726.41
659.00	2689.31
660.00	2644.01
661.00	2602.19
662.00	2562.59
663.00	2559.19
664.00	2695.64
665.00	2696.93
666.00	2743.01
667.00	2760.28
668.00	2755.43
669.00	2756.13
670.00	2763.33
671.00	2747.44
672.00	2719.45
673.00	2723.16
674.00	2719.40
675.00	2714.47
676.00	2683.70
677.00	2664.89
678.00	2588.39
679.00	2607.08
680.00	2649.53
681.00	2630.44
682.00	2630.54
683.00	2625.89
684.00	2611.15
685.00	2610.76
686.00	2559.62
687.00	2563.08
688.00	2544.38
689.00	2562.14
690.00	2289.20
691.00	2540.16
692.00	2530.52
693.00	2472.02
694.00	2449.51
695.00	2430.00
696.00	2415.64
697.00	2391.91
698.00	2383.25
699.00	2367.63
700.00	2331.76
701.00	2316.25
702.00	2297.64
703.00	2293.67
704.00	2256.83
705.00	2252.59
706.00	2228.09
707.00	2220.59
708.00	2204.87
709.00	2194.40
710.00	2180.35
711.00	2161.30
712.00	2147.32
713.00	2126.60
714.00	2103.76
715.00	2102.15
716.00	2086.02
717.00	2067.93
718.00	2053.79
719.00	2042.86
720.00	2035.63
721.00	2006.36
722.00	1988.76
723.00	1983.40
724.00	1981.22
725.00	1971.88
726.00	1979.18
727.00	1956.11
728.00	1923.71
729.00	1922.75
730.00	1900.92
731.00	1909.57
732.00	1874.30
733.00	1856.52
734.00	1868.04
735.00	1849.55
736.00	1851.55
737.00	1833.55
738.00	1813.33
739.00	1803.56
740.00	1796.73
741.00	1783.77
742.00	1777.96
743.00	1754.17
744.00	1721.28
745.00	1726.91
746.00	1729.81
747.00	1709.71
748.00	1703.97
749.00	1678.21
750.00	1670.82
751.00	1657.87
752.00	1650.11
753.00	1640.54
754.00	1621.74
755.00	1608.62
756.00	1594.45
757.00	1578.88
758.00	1564.79
759.00	1555.85
760.00	1546.02
761.00	1525.92
762.00	1525.71
763.00	1507.18
764.00	1491.96
765.00	1468.21
766.00	1457.53
767.00	1455.17
768.00	1436.64
769.00	1413.11
770.00	1411.03
771.00	1382.66
772.00	1386.59
773.00	1364.34
774.00	1348.70
775.00	1329.45
776.00	1314.51
777.00	1305.46
778.00	1289.30
779.00	1276.57
780.00	1254.73
781.00	1223.40
782.00	1124.40
783.00	1223.07
784.00	1200.04
785.00	1183.55
786.00	1170.86
787.00	1157.67
788.00	1149.81
789.00	1127.41
790.00	1127.65
791.00	1134.54
792.00	1135.13
793.00	1135.33
794.00	1130.63
795.00	1122.99
796.00	1133.29
797.00	1119.02
798.00	1116.55
799.00	1120.57
800.00	1107.76
801.00	1101.70
802.00	1098.94
803.00	1081.37
804.00	1072.37
805.00	1070.47
806.00	1061.00
807.00	1053.57
808.00	1043.10
809.00	1021.81
810.00	1014.64
811.00	1001.13
812.00	989.98
813.00	976.88
814.00	973.58
815.00	958.06
816.00	949.58
817.00	928.57
818.00	913.62
819.00	910.63
820.00	890.80
821.00	887.89
822.00	882.47
823.00	884.75
824.00	851.52
825.00	854.05
826.00	846.91
827.00	836.78
828.00	829.53
829.00	821.81
830.00	811.93
831.00	799.57
832.00	795.39
833.00	781.80
834.00	778.88
835.00	771.57
836.00	759.06
837.00	753.01
838.00	752.64
839.00	741.11
840.00	733.99
841.00	725.33
842.00	714.80
843.00	713.28
844.00	712.60
845.00	703.51
846.00	697.03
847.00	689.76
848.00	682.66
849.00	676.31
850.00	668.47
851.00	662.34
852.00	655.70
853.00	654.34
854.00	643.51
855.00	636.27
856.00	630.35
857.00	629.48
858.00	625.81
859.00	621.08
860.00	611.03
861.00	623.46
862.00	593.98
863.00	598.94
864.00	585.47
865.00	585.29
866.00	543.73
867.00	566.46
868.00	568.93
869.00	557.54
870.00	551.87
871.00	550.74
872.00	543.40
873.00	527.04
874.00	516.83
875.00	493.11
876.00	511.13
877.00	500.22
878.00	490.07
879.00	479.29
880.00	481.65
881.00	481.06
882.00	484.44
883.00	483.05
884.00	486.01
885.00	482.50
886.00	482.03
887.00	479.66
888.00	494.24
889.00	488.96
890.00	489.00
891.00	474.47
892.00	446.98
893.00	467.36
894.00	487.14
895.00	490.26
896.00	484.98
897.00	483.64
898.00	480.73
899.00	483.42
900.00	471.44
901.00	451.97
902.00	473.75
903.00	462.02
904.00	469.50
905.00	464.14
906.00	404.46
907.00	454.90
908.00	450.46
909.00	443.19
910.00	435.65
911.00	430.63
912.00	407.47
913.00	411.99
914.00	411.88
915.00	406.38
916.00	401.53
917.00	395.80
918.00	390.38
919.00	348.13
920.00	367.78
921.00	376.13
922.00	368.14
923.00	360.76
924.00	350.48
925.00	344.78
926.00	341.55
927.00	338.99
928.00	330.66
929.00	323.51
930.00	317.84
931.00	313.50
932.00	282.20
933.00	308.75
934.00	304.53
935.00	274.55
936.00	285.13
937.00	288.38
938.00	260.77
939.00	276.69
940.00	263.47
941.00	271.79
942.00	269.26
943.00	255.31
944.00	228.16
945.00	248.66
946.00	255.67
947.00	240.97
948.00	205.83
949.00	227.39
950.00	228.44
951.00	218.51
952.00	211.12
953.00	194.18
954.00	217.70
955.00	208.87
956.00	201.18
957.00	198.84
958.00	201.17
959.00	203.53
960.00	179.44
961.00	178.76
962.00	182.07
963.00	185.85
964.00	178.19
965.00	174.37
966.00	179.14
967.00	173.28
968.00	164.78
969.00	167.10
970.00	165.84
971.00	162.69
972.00	156.40
973.00	151.80
974.00	147.28
975.00	156.46
976.00	129.61
977.00	145.32
978.00	145.80
979.00	140.72
980.00	139.59
981.00	136.51
982.00	136.23
983.00	126.63
984.00	122.05
985.00	127.22
986.00	123.89
987.00	125.73
988.00	111.02
989.00	110.10
990.00	106.67
991.00	109.97
992.00	107.28
993.00	103.28
994.00	100.83
995.00	97.95
996.00	96.02
997.00	92.58
998.00	91.17
999.00	86.42
1000.00	84.17
>>>>>End Processed Spectral Data<<<<<
